      En-low      En-high        flux      flux-unc         gxs       gxs-unc   greac-rate     cum-rate 

  1.00000E-05  1.04713E-05  1.41044E-03  0.00000E+00  1.10819E+07  5.77507E+01  1.56303E+04  1.56303E+04
  1.04713E-05  1.09648E-05  1.41044E-03  0.00000E+00  1.08297E+07  5.77507E+01  1.52746E+04  3.09049E+04
  1.09648E-05  1.14815E-05  1.41044E-03  0.00000E+00  1.05829E+07  5.77507E+01  1.49265E+04  4.58313E+04
  1.14815E-05  1.20226E-05  1.41044E-03  0.00000E+00  1.03421E+07  5.77507E+01  1.45868E+04  6.04182E+04
  1.20226E-05  1.25893E-05  1.41044E-03  0.00000E+00  1.01067E+07  5.77507E+01  1.42548E+04  7.46730E+04
  1.25893E-05  1.31826E-05  1.41044E-03  0.00000E+00  9.87675E+06  5.77507E+01  1.39305E+04  8.86035E+04
  1.31826E-05  1.38038E-05  1.41044E-03  0.00000E+00  9.65170E+06  5.77507E+01  1.36131E+04  1.02217E+05
  1.38038E-05  1.44544E-05  1.41044E-03  0.00000E+00  9.43228E+06  5.77507E+01  1.33036E+04  1.15520E+05
  1.44544E-05  1.51356E-05  1.41044E-03  0.00000E+00  9.21744E+06  5.77507E+01  1.30006E+04  1.28521E+05
  1.51356E-05  1.58489E-05  1.41044E-03  0.00000E+00  9.00762E+06  5.77507E+01  1.27047E+04  1.41226E+05
  1.58489E-05  1.65959E-05  1.41044E-03  0.00000E+00  8.80260E+06  5.77507E+01  1.24155E+04  1.53641E+05
  1.65959E-05  1.73780E-05  1.41044E-03  0.00000E+00  8.60221E+06  5.77507E+01  1.21329E+04  1.65774E+05
  1.73780E-05  1.81970E-05  1.41044E-03  0.00000E+00  8.40649E+06  5.77507E+01  1.18568E+04  1.77631E+05
  1.81970E-05  1.90546E-05  1.41044E-03  0.00000E+00  8.21499E+06  5.77507E+01  1.15867E+04  1.89218E+05
  1.90546E-05  1.99526E-05  1.41044E-03  0.00000E+00  8.02807E+06  5.77507E+01  1.13231E+04  2.00541E+05
  1.99526E-05  2.08930E-05  1.41044E-03  0.00000E+00  7.84524E+06  5.77507E+01  1.10652E+04  2.11606E+05
  2.08930E-05  2.18776E-05  1.41044E-03  0.00000E+00  7.66678E+06  5.77507E+01  1.08135E+04  2.22419E+05
  2.18776E-05  2.29087E-05  1.41044E-03  0.00000E+00  7.49213E+06  5.77507E+01  1.05672E+04  2.32987E+05
  2.29087E-05  2.39883E-05  1.41044E-03  0.00000E+00  7.32174E+06  5.77507E+01  1.03269E+04  2.43313E+05
  2.39883E-05  2.51189E-05  1.41044E-03  0.00000E+00  7.15503E+06  5.77507E+01  1.00917E+04  2.53405E+05
  2.51189E-05  2.63027E-05  1.41044E-03  0.00000E+00  6.99215E+06  5.77507E+01  9.86199E+03  2.63267E+05
  2.63027E-05  2.75423E-05  1.41044E-03  0.00000E+00  6.83302E+06  5.77507E+01  9.63755E+03  2.72905E+05
  2.75423E-05  2.88403E-05  1.41044E-03  0.00000E+00  6.67748E+06  5.77507E+01  9.41816E+03  2.82323E+05
  2.88403E-05  3.01995E-05  1.41044E-03  0.00000E+00  6.52551E+06  5.77507E+01  9.20382E+03  2.91527E+05
  3.01995E-05  3.16228E-05  1.41044E-03  0.00000E+00  6.37685E+06  5.77507E+01  8.99415E+03  3.00521E+05
  3.16228E-05  3.31131E-05  1.41044E-03  0.00000E+00  6.23182E+06  5.77507E+01  8.78959E+03  3.09310E+05
  3.31131E-05  3.46737E-05  1.41044E-03  0.00000E+00  6.08987E+06  5.77507E+01  8.58938E+03  3.17900E+05
  3.46737E-05  3.63078E-05  1.41044E-03  0.00000E+00  5.95132E+06  5.77507E+01  8.39397E+03  3.26294E+05
  3.63078E-05  3.80189E-05  1.41044E-03  0.00000E+00  5.81579E+06  5.77507E+01  8.20281E+03  3.34497E+05
  3.80189E-05  3.98107E-05  1.41044E-03  0.00000E+00  5.68346E+06  5.77507E+01  8.01617E+03  3.42513E+05
  3.98107E-05  4.16869E-05  1.41044E-03  0.00000E+00  5.55406E+06  5.77507E+01  7.83365E+03  3.50346E+05
  4.16869E-05  4.36516E-05  1.41044E-03  0.00000E+00  5.42764E+06  5.77507E+01  7.65534E+03  3.58002E+05
  4.36516E-05  4.57088E-05  1.41044E-03  0.00000E+00  5.30411E+06  5.77507E+01  7.48111E+03  3.65483E+05
  4.57088E-05  4.78630E-05  1.41044E-03  0.00000E+00  5.18333E+06  5.77507E+01  7.31077E+03  3.72794E+05
  4.78630E-05  5.01187E-05  1.41044E-03  0.00000E+00  5.06541E+06  5.77507E+01  7.14444E+03  3.79938E+05
  5.01187E-05  5.24808E-05  1.41044E-03  0.00000E+00  4.95003E+06  5.77507E+01  6.98170E+03  3.86920E+05
  5.24808E-05  5.49541E-05  1.41044E-03  0.00000E+00  4.83743E+06  5.77507E+01  6.82290E+03  3.93743E+05
  5.49541E-05  5.75440E-05  1.41044E-03  0.00000E+00  4.72725E+06  5.77507E+01  6.66749E+03  4.00410E+05
  5.75440E-05  6.02560E-05  1.41044E-03  0.00000E+00  4.61971E+06  5.77507E+01  6.51581E+03  4.06926E+05
  6.02560E-05  6.30957E-05  1.41044E-03  0.00000E+00  4.51450E+06  5.77507E+01  6.36741E+03  4.13293E+05
  6.30957E-05  6.60693E-05  1.41044E-03  0.00000E+00  4.41178E+06  5.77507E+01  6.22253E+03  4.19516E+05
  6.60693E-05  6.91831E-05  1.41044E-03  0.00000E+00  4.31135E+06  5.77507E+01  6.08088E+03  4.25597E+05
  6.91831E-05  7.24436E-05  1.41044E-03  0.00000E+00  4.21319E+06  5.77507E+01  5.94243E+03  4.31539E+05
  7.24436E-05  7.58578E-05  1.41044E-03  0.00000E+00  4.11731E+06  5.77507E+01  5.80720E+03  4.37346E+05
  7.58578E-05  7.94328E-05  1.41044E-03  0.00000E+00  4.02354E+06  5.77507E+01  5.67495E+03  4.43021E+05
  7.94328E-05  8.31764E-05  1.41044E-03  0.00000E+00  3.93202E+06  5.77507E+01  5.54586E+03  4.48567E+05
  8.31764E-05  8.70964E-05  1.41044E-03  0.00000E+00  3.84246E+06  5.77507E+01  5.41955E+03  4.53987E+05
  8.70964E-05  9.12011E-05  1.41044E-03  0.00000E+00  3.75505E+06  5.77507E+01  5.29627E+03  4.59283E+05
  9.12011E-05  9.54993E-05  1.41044E-03  0.00000E+00  3.66952E+06  5.77507E+01  5.17563E+03  4.64459E+05
  9.54993E-05  1.00000E-04  1.41044E-03  0.00000E+00  3.58604E+06  5.77507E+01  5.05788E+03  4.69517E+05
  1.00000E-04  1.04713E-04  1.41044E-03  0.00000E+00  3.50440E+06  5.77507E+01  4.94273E+03  4.74459E+05
  1.04713E-04  1.09648E-04  1.41044E-03  0.00000E+00  3.42463E+06  5.77507E+01  4.83023E+03  4.79289E+05
  1.09648E-04  1.14815E-04  1.41044E-03  0.00000E+00  3.34662E+06  5.77507E+01  4.72020E+03  4.84010E+05
  1.14815E-04  1.20226E-04  1.41044E-03  0.00000E+00  3.27041E+06  5.77507E+01  4.61271E+03  4.88622E+05
  1.20226E-04  1.25893E-04  1.41044E-03  0.00000E+00  3.19605E+06  5.77507E+01  4.50783E+03  4.93130E+05
  1.25893E-04  1.31826E-04  1.41044E-03  0.00000E+00  3.12326E+06  5.77507E+01  4.40516E+03  4.97535E+05
  1.31826E-04  1.38038E-04  1.41044E-03  0.00000E+00  3.05218E+06  5.77507E+01  4.30491E+03  5.01840E+05
  1.38038E-04  1.44544E-04  1.41044E-03  0.00000E+00  2.98270E+06  5.77507E+01  4.20692E+03  5.06047E+05
  1.44544E-04  1.51356E-04  1.41044E-03  0.00000E+00  2.91484E+06  5.77507E+01  4.11121E+03  5.10158E+05
  1.51356E-04  1.58489E-04  1.41044E-03  0.00000E+00  2.84843E+06  5.77507E+01  4.01754E+03  5.14176E+05
  1.58489E-04  1.65959E-04  1.41044E-03  0.00000E+00  2.78364E+06  5.77507E+01  3.92615E+03  5.18102E+05
  1.65959E-04  1.73780E-04  1.41044E-03  0.00000E+00  2.72026E+06  5.77507E+01  3.83676E+03  5.21939E+05
  1.73780E-04  1.81970E-04  1.41044E-03  0.00000E+00  2.65835E+06  5.77507E+01  3.74944E+03  5.25688E+05
  1.81970E-04  1.90546E-04  1.41044E-03  0.00000E+00  2.59783E+06  5.77507E+01  3.66408E+03  5.29352E+05
  1.90546E-04  1.99526E-04  1.41044E-03  0.00000E+00  2.53867E+06  5.77507E+01  3.58063E+03  5.32933E+05
  1.99526E-04  2.08930E-04  1.41044E-03  0.00000E+00  2.48092E+06  5.77507E+01  3.49918E+03  5.36432E+05
  2.08930E-04  2.18776E-04  1.41044E-03  0.00000E+00  2.42441E+06  5.77507E+01  3.41948E+03  5.39852E+05
  2.18776E-04  2.29087E-04  1.41044E-03  0.00000E+00  2.36926E+06  5.77507E+01  3.34169E+03  5.43193E+05
  2.29087E-04  2.39883E-04  1.41044E-03  0.00000E+00  2.31531E+06  5.77507E+01  3.26560E+03  5.46459E+05
  2.39883E-04  2.51189E-04  1.41044E-03  0.00000E+00  2.26264E+06  5.42229E+01  3.19132E+03  5.49650E+05
  2.51189E-04  2.63027E-04  1.41044E-03  0.00000E+00  2.21110E+06  5.42229E+01  3.11861E+03  5.52769E+05
  2.63027E-04  2.75423E-04  1.41044E-03  0.00000E+00  2.16079E+06  5.42229E+01  3.04767E+03  5.55817E+05
  2.75423E-04  2.88403E-04  1.41044E-03  0.00000E+00  2.11161E+06  5.42229E+01  2.97830E+03  5.58795E+05
  2.88403E-04  3.01995E-04  1.41044E-03  0.00000E+00  2.06353E+06  5.42229E+01  2.91048E+03  5.61705E+05
  3.01995E-04  3.16228E-04  1.41044E-03  0.00000E+00  2.01656E+06  5.42229E+01  2.84423E+03  5.64550E+05
  3.16228E-04  3.31131E-04  1.41044E-03  0.00000E+00  1.97065E+06  5.42229E+01  2.77947E+03  5.67329E+05
  3.31131E-04  3.46737E-04  1.41044E-03  0.00000E+00  1.92582E+06  5.42229E+01  2.71624E+03  5.70045E+05
  3.46737E-04  3.63078E-04  1.41044E-03  0.00000E+00  1.88195E+06  5.42229E+01  2.65437E+03  5.72700E+05
  3.63078E-04  3.80189E-04  1.41044E-03  0.00000E+00  1.83914E+06  5.42229E+01  2.59399E+03  5.75294E+05
  3.80189E-04  3.98107E-04  1.41044E-03  0.00000E+00  1.79725E+06  5.42229E+01  2.53491E+03  5.77829E+05
  3.98107E-04  4.16869E-04  1.41044E-03  0.00000E+00  1.75636E+06  5.42229E+01  2.47724E+03  5.80306E+05
  4.16869E-04  4.36516E-04  1.41044E-03  0.00000E+00  1.71636E+06  5.42229E+01  2.42082E+03  5.82727E+05
  4.36516E-04  4.57088E-04  1.41044E-03  0.00000E+00  1.67730E+06  5.42229E+01  2.36573E+03  5.85092E+05
  4.57088E-04  4.78630E-04  1.41044E-03  0.00000E+00  1.63913E+06  5.42229E+01  2.31188E+03  5.87404E+05
  4.78630E-04  5.01187E-04  1.41044E-03  0.00000E+00  1.60181E+06  5.42229E+01  2.25925E+03  5.89663E+05
  5.01187E-04  5.24807E-04  1.41044E-03  0.00000E+00  1.56536E+06  5.42229E+01  2.20784E+03  5.91871E+05
  5.24807E-04  5.49541E-04  1.41044E-03  0.00000E+00  1.52971E+06  5.42229E+01  2.15756E+03  5.94029E+05
  5.49541E-04  5.75440E-04  1.41044E-03  0.00000E+00  1.49491E+06  5.42229E+01  2.10848E+03  5.96137E+05
  5.75440E-04  6.02560E-04  1.41044E-03  0.00000E+00  1.46086E+06  5.42229E+01  2.06045E+03  5.98198E+05
  6.02560E-04  6.30957E-04  1.41044E-03  0.00000E+00  1.42763E+06  5.42229E+01  2.01358E+03  6.00211E+05
  6.30957E-04  6.60693E-04  1.41044E-03  0.00000E+00  1.39511E+06  5.42229E+01  1.96772E+03  6.02179E+05
  6.60693E-04  6.91831E-04  1.41044E-03  0.00000E+00  1.36337E+06  5.42229E+01  1.92295E+03  6.04102E+05
  6.91831E-04  7.24436E-04  1.41044E-03  0.00000E+00  1.33233E+06  5.42229E+01  1.87916E+03  6.05981E+05
  7.24436E-04  7.58578E-04  1.41044E-03  0.00000E+00  1.30200E+06  5.42229E+01  1.83639E+03  6.07818E+05
  7.58578E-04  7.94328E-04  1.41044E-03  0.00000E+00  1.27237E+06  5.04377E+01  1.79460E+03  6.09612E+05
  7.94328E-04  8.31764E-04  1.41044E-03  0.00000E+00  1.24340E+06  5.04377E+01  1.75374E+03  6.11366E+05
  8.31764E-04  8.70964E-04  1.41044E-03  0.00000E+00  1.21511E+06  5.04377E+01  1.71384E+03  6.13080E+05
  8.70964E-04  9.12011E-04  1.41044E-03  0.00000E+00  1.18743E+06  5.04377E+01  1.67480E+03  6.14755E+05
  9.12011E-04  9.54993E-04  1.41044E-03  0.00000E+00  1.16042E+06  5.04377E+01  1.63670E+03  6.16391E+05
  9.54993E-04  1.00000E-03  1.41044E-03  0.00000E+00  1.13399E+06  5.04377E+01  1.59942E+03  6.17991E+05
  1.00000E-03  1.04713E-03  1.41044E-03  0.00000E+00  1.10820E+06  5.04377E+01  1.56305E+03  6.19554E+05
  1.04713E-03  1.09648E-03  1.41044E-03  0.00000E+00  1.08296E+06  5.04377E+01  1.52744E+03  6.21081E+05
  1.09648E-03  1.14815E-03  1.41044E-03  0.00000E+00  1.05830E+06  5.04377E+01  1.49266E+03  6.22574E+05
  1.14815E-03  1.20226E-03  1.41044E-03  0.00000E+00  1.03420E+06  5.04377E+01  1.45867E+03  6.24033E+05
  1.20226E-03  1.25892E-03  1.41044E-03  0.00000E+00  1.01067E+06  5.04377E+01  1.42549E+03  6.25458E+05
  1.25892E-03  1.31826E-03  1.41044E-03  0.00000E+00  9.87672E+05  5.04377E+01  1.39305E+03  6.26851E+05
  1.31826E-03  1.38038E-03  1.41044E-03  0.00000E+00  9.65172E+05  5.04377E+01  1.36132E+03  6.28212E+05
  1.38038E-03  1.44544E-03  1.41044E-03  0.00000E+00  9.43229E+05  5.04377E+01  1.33037E+03  6.29543E+05
  1.44544E-03  1.51356E-03  1.41044E-03  0.00000E+00  9.21741E+05  5.04377E+01  1.30006E+03  6.30843E+05
  1.51356E-03  1.58489E-03  1.41044E-03  0.00000E+00  9.00767E+05  5.04377E+01  1.27048E+03  6.32113E+05
  1.58489E-03  1.65959E-03  1.41044E-03  0.00000E+00  8.80253E+05  5.04377E+01  1.24154E+03  6.33355E+05
  1.65959E-03  1.73780E-03  1.41044E-03  0.00000E+00  8.60230E+05  5.04377E+01  1.21330E+03  6.34568E+05
  1.73780E-03  1.81970E-03  1.41044E-03  0.00000E+00  8.40641E+05  5.04377E+01  1.18567E+03  6.35754E+05
  1.81970E-03  1.90546E-03  1.41044E-03  0.00000E+00  8.21507E+05  5.04377E+01  1.15868E+03  6.36912E+05
  1.90546E-03  1.99526E-03  1.41044E-03  0.00000E+00  8.02802E+05  5.04377E+01  1.13230E+03  6.38045E+05
  1.99526E-03  2.08930E-03  1.41044E-03  0.00000E+00  7.84529E+05  5.04377E+01  1.10653E+03  6.39151E+05
  2.08930E-03  2.18776E-03  1.41044E-03  0.00000E+00  7.66677E+05  5.04377E+01  1.08135E+03  6.40233E+05
  2.18776E-03  2.29087E-03  1.41044E-03  0.00000E+00  7.49214E+05  5.04377E+01  1.05672E+03  6.41289E+05
  2.29087E-03  2.39883E-03  1.41044E-03  0.00000E+00  7.32176E+05  4.59259E+01  1.03269E+03  6.42322E+05
  2.39883E-03  2.51189E-03  1.41044E-03  0.00000E+00  7.15500E+05  4.59259E+01  1.00917E+03  6.43331E+05
  2.51189E-03  2.63027E-03  1.41044E-03  0.00000E+00  6.99220E+05  4.59259E+01  9.86206E+02  6.44317E+05
  2.63027E-03  2.75423E-03  1.41044E-03  0.00000E+00  6.83297E+05  4.59259E+01  9.63747E+02  6.45281E+05
  2.75423E-03  2.88403E-03  1.41044E-03  0.00000E+00  6.67755E+05  4.59259E+01  9.41827E+02  6.46223E+05
  2.88403E-03  3.01995E-03  1.41044E-03  0.00000E+00  6.52545E+05  4.59259E+01  9.20374E+02  6.47143E+05
  3.01995E-03  3.16228E-03  1.41044E-03  0.00000E+00  6.37692E+05  4.59259E+01  8.99424E+02  6.48043E+05
  3.16228E-03  3.31131E-03  1.41044E-03  0.00000E+00  6.23180E+05  4.59259E+01  8.78956E+02  6.48922E+05
  3.31131E-03  3.46737E-03  1.41044E-03  0.00000E+00  6.08990E+05  4.59259E+01  8.58942E+02  6.49781E+05
  3.46737E-03  3.63078E-03  1.41044E-03  0.00000E+00  5.95133E+05  4.59259E+01  8.39397E+02  6.50620E+05
  3.63078E-03  3.80189E-03  1.41044E-03  0.00000E+00  5.81579E+05  4.59259E+01  8.20281E+02  6.51440E+05
  3.80189E-03  3.98107E-03  1.41044E-03  0.00000E+00  5.68349E+05  4.59259E+01  8.01621E+02  6.52242E+05
  3.98107E-03  4.16869E-03  1.41044E-03  0.00000E+00  5.55403E+05  4.59259E+01  7.83361E+02  6.53025E+05
  4.16869E-03  4.36516E-03  1.41044E-03  0.00000E+00  5.42769E+05  4.59259E+01  7.65541E+02  6.53791E+05
  4.36516E-03  4.57088E-03  1.41044E-03  0.00000E+00  5.30406E+05  4.59259E+01  7.48105E+02  6.54539E+05
  4.57088E-03  4.78630E-03  1.41044E-03  0.00000E+00  5.18340E+05  4.59259E+01  7.31085E+02  6.55270E+05
  4.78630E-03  5.01187E-03  1.41044E-03  0.00000E+00  5.06538E+05  4.59259E+01  7.14439E+02  6.55985E+05
  5.01187E-03  5.24807E-03  1.41044E-03  0.00000E+00  4.95007E+05  4.59259E+01  6.98177E+02  6.56683E+05
  5.24807E-03  5.49541E-03  1.41044E-03  0.00000E+00  4.83743E+05  4.59259E+01  6.82288E+02  6.57365E+05
  5.49541E-03  5.75440E-03  1.41044E-03  0.00000E+00  4.72727E+05  4.59259E+01  6.66752E+02  6.58032E+05
  5.75440E-03  6.02560E-03  1.41044E-03  0.00000E+00  4.61972E+05  4.59259E+01  6.51583E+02  6.58683E+05
  6.02560E-03  6.30957E-03  1.41044E-03  0.00000E+00  4.51449E+05  4.23736E+01  6.36741E+02  6.59320E+05
  6.30957E-03  6.60693E-03  1.41044E-03  0.00000E+00  4.41181E+05  4.23736E+01  6.22258E+02  6.59942E+05
  6.60693E-03  6.91831E-03  1.41044E-03  0.00000E+00  4.31132E+05  4.23736E+01  6.08085E+02  6.60550E+05
  6.91831E-03  7.24436E-03  1.41044E-03  0.00000E+00  4.21323E+05  4.23736E+01  5.94250E+02  6.61145E+05
  7.24436E-03  7.58578E-03  1.41044E-03  0.00000E+00  4.11728E+05  4.23736E+01  5.80716E+02  6.61725E+05
  7.58578E-03  7.94328E-03  1.41044E-03  0.00000E+00  4.02359E+05  4.23736E+01  5.67503E+02  6.62293E+05
  7.94328E-03  8.31764E-03  1.41044E-03  0.00000E+00  3.93200E+05  4.23736E+01  5.54584E+02  6.62847E+05
  8.31764E-03  8.70964E-03  1.41044E-03  0.00000E+00  3.84250E+05  4.23736E+01  5.41960E+02  6.63389E+05
  8.70964E-03  9.12011E-03  1.41044E-03  0.00000E+00  3.75505E+05  4.23736E+01  5.29627E+02  6.63919E+05
  9.12011E-03  9.54993E-03  1.41044E-03  0.00000E+00  3.66954E+05  4.23736E+01  5.17565E+02  6.64437E+05
  9.54993E-03  1.00000E-02  1.41044E-03  0.00000E+00  3.58606E+05  4.23736E+01  5.05791E+02  6.64942E+05
  1.00000E-02  1.04713E-02  1.41044E-03  0.00000E+00  3.50439E+05  4.23736E+01  4.94273E+02  6.65437E+05
  1.04713E-02  1.09648E-02  1.41044E-03  0.00000E+00  3.42466E+05  4.23736E+01  4.83027E+02  6.65920E+05
  1.09648E-02  1.14815E-02  1.41044E-03  0.00000E+00  3.34660E+05  4.23736E+01  4.72017E+02  6.66392E+05
  1.14815E-02  1.20226E-02  1.41044E-03  0.00000E+00  3.27046E+05  4.01271E+01  4.61278E+02  6.66853E+05
  1.20226E-02  1.25892E-02  1.41044E-03  0.00000E+00  3.19603E+05  4.01271E+01  4.50780E+02  6.67304E+05
  1.25892E-02  1.31826E-02  1.41044E-03  0.00000E+00  3.12330E+05  4.01271E+01  4.40521E+02  6.67744E+05
  1.31826E-02  1.38038E-02  1.41044E-03  0.00000E+00  3.05218E+05  4.01271E+01  4.30491E+02  6.68175E+05
  1.38038E-02  1.44544E-02  1.41044E-03  0.00000E+00  2.98273E+05  4.01271E+01  4.20696E+02  6.68595E+05
  1.44544E-02  1.51356E-02  1.41044E-03  0.00000E+00  2.91486E+05  4.01271E+01  4.11122E+02  6.69007E+05
  1.51356E-02  1.58489E-02  1.41044E-03  0.00000E+00  2.84844E+05  4.01271E+01  4.01755E+02  6.69408E+05
  1.58489E-02  1.65959E-02  1.41044E-03  0.00000E+00  2.78366E+05  4.01271E+01  3.92618E+02  6.69801E+05
  1.65959E-02  1.73780E-02  1.41044E-03  0.00000E+00  2.72026E+05  4.01271E+01  3.83675E+02  6.70185E+05
  1.73780E-02  1.81970E-02  1.41044E-03  0.00000E+00  2.65839E+05  4.01271E+01  3.74949E+02  6.70560E+05
  1.81970E-02  1.90546E-02  1.41044E-03  0.00000E+00  2.59783E+05  4.01271E+01  3.66407E+02  6.70926E+05
  1.90546E-02  1.99526E-02  1.41044E-03  0.00000E+00  2.53871E+05  4.01271E+01  3.58070E+02  6.71284E+05
  1.99526E-02  2.08930E-02  1.41044E-03  0.00000E+00  2.48092E+05  3.92634E+01  3.49919E+02  6.71634E+05
  2.08930E-02  2.18776E-02  1.41044E-03  0.00000E+00  2.42446E+05  3.91232E+01  3.41955E+02  6.71976E+05
  2.18776E-02  2.29087E-02  1.41044E-03  0.00000E+00  2.36929E+05  3.89929E+01  3.34173E+02  6.72310E+05
  2.29087E-02  2.39883E-02  1.41044E-03  0.00000E+00  2.31537E+05  3.88721E+01  3.26568E+02  6.72637E+05
  2.39883E-02  2.51189E-02  1.41044E-03  0.00000E+00  2.26271E+05  3.87608E+01  3.19141E+02  6.72956E+05
  2.51189E-02  2.63027E-02  1.41044E-03  0.00000E+00  2.21118E+05  3.86832E+01  3.11873E+02  6.73268E+05
  2.63027E-02  2.75423E-02  1.41044E-03  0.00000E+00  2.16093E+05  3.86344E+01  3.04785E+02  6.73572E+05
  2.75423E-02  2.88403E-02  1.41044E-03  0.00000E+00  2.11177E+05  3.85641E+01  2.97852E+02  6.73870E+05
  2.88403E-02  3.01995E-02  1.41044E-03  0.00000E+00  2.06377E+05  3.84756E+01  2.91082E+02  6.74161E+05
  3.01995E-02  3.16228E-02  1.41044E-03  0.00000E+00  2.01685E+05  3.83933E+01  2.84465E+02  6.74446E+05
  3.16228E-02  3.31131E-02  1.41044E-03  0.00000E+00  1.97107E+05  3.83355E+01  2.78006E+02  6.74724E+05
  3.31131E-02  3.46737E-02  1.41044E-03  0.00000E+00  1.92633E+05  3.82990E+01  2.71697E+02  6.74996E+05
  3.46737E-02  3.63078E-02  1.41044E-03  0.00000E+00  1.88262E+05  3.81232E+01  2.65532E+02  6.75261E+05
  3.63078E-02  3.80189E-02  1.41044E-03  0.00000E+00  1.83998E+05  3.78747E+01  2.59517E+02  6.75521E+05
  3.80189E-02  3.98107E-02  1.41044E-03  0.00000E+00  1.79828E+05  3.78747E+01  2.53636E+02  6.75774E+05
  3.98107E-02  4.16869E-02  1.41044E-03  0.00000E+00  1.75760E+05  3.76386E+01  2.47899E+02  6.76022E+05
  4.16869E-02  4.36516E-02  1.41044E-03  0.00000E+00  1.71782E+05  3.76386E+01  2.42287E+02  6.76264E+05
  4.36516E-02  4.57088E-02  1.41044E-03  0.00000E+00  1.67899E+05  3.76386E+01  2.36811E+02  6.76501E+05
  4.57088E-02  4.78630E-02  1.41044E-03  0.00000E+00  1.64100E+05  3.76386E+01  2.31453E+02  6.76733E+05
  4.78630E-02  5.01187E-02  1.41044E-03  0.00000E+00  1.60390E+05  3.74760E+01  2.26220E+02  6.76959E+05
  5.01187E-02  5.24807E-02  1.41044E-03  0.00000E+00  1.56759E+05  3.74760E+01  2.21099E+02  6.77180E+05
  5.24807E-02  5.49541E-02  1.41044E-03  0.00000E+00  1.53209E+05  3.74760E+01  2.16091E+02  6.77396E+05
  5.49541E-02  5.75440E-02  1.41044E-03  0.00000E+00  1.49737E+05  3.74760E+01  2.11194E+02  6.77607E+05
  5.75440E-02  6.02560E-02  1.41044E-03  0.00000E+00  1.46338E+05  3.74216E+01  2.06400E+02  6.77814E+05
