      En-low      En-high        flux      flux-unc         gxs       gxs-unc   greac-rate     cum-rate 

  1.00000E-05  1.04713E-05  1.41044E-03  0.00000E+00  9.72835E+01  7.75422E+01  1.37212E-01  1.37212E-01
  1.04713E-05  1.09648E-05  1.41044E-03  0.00000E+00  9.50691E+01  7.75422E+01  1.34089E-01  2.71301E-01
  1.09648E-05  1.14815E-05  1.41044E-03  0.00000E+00  9.29026E+01  7.75422E+01  1.31033E-01  4.02335E-01
  1.14815E-05  1.20226E-05  1.41044E-03  0.00000E+00  9.07888E+01  7.75422E+01  1.28052E-01  5.30387E-01
  1.20226E-05  1.25893E-05  1.41044E-03  0.00000E+00  8.87222E+01  7.75422E+01  1.25137E-01  6.55524E-01
  1.25893E-05  1.31826E-05  1.41044E-03  0.00000E+00  8.67039E+01  7.75422E+01  1.22290E-01  7.77814E-01
  1.31826E-05  1.38038E-05  1.41044E-03  0.00000E+00  8.47284E+01  7.75422E+01  1.19504E-01  8.97318E-01
  1.38038E-05  1.44544E-05  1.41044E-03  0.00000E+00  8.28021E+01  7.75422E+01  1.16787E-01  1.01411E+00
  1.44544E-05  1.51356E-05  1.41044E-03  0.00000E+00  8.09161E+01  7.75422E+01  1.14127E-01  1.12823E+00
  1.51356E-05  1.58489E-05  1.41044E-03  0.00000E+00  7.90742E+01  7.75422E+01  1.11529E-01  1.23976E+00
  1.58489E-05  1.65959E-05  1.41044E-03  0.00000E+00  7.72745E+01  7.75422E+01  1.08991E-01  1.34875E+00
  1.65959E-05  1.73780E-05  1.41044E-03  0.00000E+00  7.55153E+01  7.75422E+01  1.06510E-01  1.45526E+00
  1.73780E-05  1.81970E-05  1.41044E-03  0.00000E+00  7.37971E+01  7.75422E+01  1.04086E-01  1.55935E+00
  1.81970E-05  1.90546E-05  1.41044E-03  0.00000E+00  7.21160E+01  7.75422E+01  1.01715E-01  1.66106E+00
  1.90546E-05  1.99526E-05  1.41044E-03  0.00000E+00  7.04751E+01  7.75422E+01  9.94007E-02  1.76046E+00
  1.99526E-05  2.08930E-05  1.41044E-03  0.00000E+00  6.88701E+01  7.75422E+01  9.71370E-02  1.85760E+00
  2.08930E-05  2.18776E-05  1.41044E-03  0.00000E+00  6.73036E+01  7.75422E+01  9.49275E-02  1.95253E+00
  2.18776E-05  2.29087E-05  1.41044E-03  0.00000E+00  6.57704E+01  7.75422E+01  9.27650E-02  2.04529E+00
  2.29087E-05  2.39883E-05  1.41044E-03  0.00000E+00  6.42746E+01  7.75422E+01  9.06553E-02  2.13595E+00
  2.39883E-05  2.51189E-05  1.41044E-03  0.00000E+00  6.28111E+01  7.75422E+01  8.85911E-02  2.22454E+00
  2.51189E-05  2.63027E-05  1.41044E-03  0.00000E+00  6.13812E+01  7.75422E+01  8.65744E-02  2.31111E+00
  2.63027E-05  2.75423E-05  1.41044E-03  0.00000E+00  5.99843E+01  7.75422E+01  8.46041E-02  2.39572E+00
  2.75423E-05  2.88403E-05  1.41044E-03  0.00000E+00  5.86189E+01  7.75422E+01  8.26782E-02  2.47840E+00
  2.88403E-05  3.01995E-05  1.41044E-03  0.00000E+00  5.72848E+01  7.75422E+01  8.07965E-02  2.55919E+00
  3.01995E-05  3.16228E-05  1.41044E-03  0.00000E+00  5.59798E+01  7.75422E+01  7.89559E-02  2.63815E+00
  3.16228E-05  3.31131E-05  1.41044E-03  0.00000E+00  5.47066E+01  7.75422E+01  7.71603E-02  2.71531E+00
  3.31131E-05  3.46737E-05  1.41044E-03  0.00000E+00  5.34605E+01  7.75422E+01  7.54026E-02  2.79071E+00
  3.46737E-05  3.63078E-05  1.41044E-03  0.00000E+00  5.22442E+01  7.75422E+01  7.36872E-02  2.86440E+00
  3.63078E-05  3.80189E-05  1.41044E-03  0.00000E+00  5.10544E+01  7.75422E+01  7.20091E-02  2.93641E+00
  3.80189E-05  3.98107E-05  1.41044E-03  0.00000E+00  4.98928E+01  7.75422E+01  7.03707E-02  3.00678E+00
  3.98107E-05  4.16869E-05  1.41044E-03  0.00000E+00  4.87568E+01  7.75422E+01  6.87684E-02  3.07555E+00
  4.16869E-05  4.36516E-05  1.41044E-03  0.00000E+00  4.76470E+01  7.75422E+01  6.72031E-02  3.14275E+00
  4.36516E-05  4.57088E-05  1.41044E-03  0.00000E+00  4.65626E+01  7.75422E+01  6.56736E-02  3.20842E+00
  4.57088E-05  4.78630E-05  1.41044E-03  0.00000E+00  4.55024E+01  7.75422E+01  6.41783E-02  3.27260E+00
  4.78630E-05  5.01187E-05  1.41044E-03  0.00000E+00  4.44672E+01  7.75422E+01  6.27181E-02  3.33532E+00
  5.01187E-05  5.24808E-05  1.41044E-03  0.00000E+00  4.34543E+01  7.75422E+01  6.12895E-02  3.39661E+00
  5.24808E-05  5.49541E-05  1.41044E-03  0.00000E+00  4.24659E+01  7.75422E+01  5.98954E-02  3.45651E+00
  5.49541E-05  5.75440E-05  1.41044E-03  0.00000E+00  4.14986E+01  7.75422E+01  5.85312E-02  3.51504E+00
  5.75440E-05  6.02560E-05  1.41044E-03  0.00000E+00  4.05546E+01  7.75422E+01  5.71997E-02  3.57224E+00
  6.02560E-05  6.30957E-05  1.41044E-03  0.00000E+00  3.96309E+01  7.75422E+01  5.58969E-02  3.62813E+00
  6.30957E-05  6.60693E-05  1.41044E-03  0.00000E+00  3.87292E+01  7.75422E+01  5.46251E-02  3.68276E+00
  6.60693E-05  6.91831E-05  1.41044E-03  0.00000E+00  3.78476E+01  7.75422E+01  5.33816E-02  3.73614E+00
  6.91831E-05  7.24436E-05  1.41044E-03  0.00000E+00  3.69858E+01  7.75422E+01  5.21662E-02  3.78831E+00
  7.24436E-05  7.58578E-05  1.41044E-03  0.00000E+00  3.61442E+01  7.75422E+01  5.09791E-02  3.83929E+00
  7.58578E-05  7.94328E-05  1.41044E-03  0.00000E+00  3.53210E+01  7.75422E+01  4.98181E-02  3.88910E+00
  7.94328E-05  8.31764E-05  1.41044E-03  0.00000E+00  3.45176E+01  7.75422E+01  4.86849E-02  3.93779E+00
  8.31764E-05  8.70964E-05  1.41044E-03  0.00000E+00  3.37314E+01  7.75422E+01  4.75760E-02  3.98536E+00
  8.70964E-05  9.12011E-05  1.41044E-03  0.00000E+00  3.29641E+01  7.75422E+01  4.64938E-02  4.03186E+00
  9.12011E-05  9.54993E-05  1.41044E-03  0.00000E+00  3.22132E+01  7.75422E+01  4.54347E-02  4.07729E+00
  9.54993E-05  1.00000E-04  1.41044E-03  0.00000E+00  3.14804E+01  7.75422E+01  4.44011E-02  4.12169E+00
  1.00000E-04  1.04713E-04  1.41044E-03  0.00000E+00  3.07637E+01  7.75422E+01  4.33903E-02  4.16508E+00
  1.04713E-04  1.09648E-04  1.41044E-03  0.00000E+00  3.00634E+01  7.75422E+01  4.24026E-02  4.20749E+00
  1.09648E-04  1.14815E-04  1.41044E-03  0.00000E+00  2.93786E+01  7.75422E+01  4.14367E-02  4.24892E+00
  1.14815E-04  1.20226E-04  1.41044E-03  0.00000E+00  2.87097E+01  7.75422E+01  4.04932E-02  4.28942E+00
  1.20226E-04  1.25893E-04  1.41044E-03  0.00000E+00  2.80568E+01  7.75422E+01  3.95724E-02  4.32899E+00
  1.25893E-04  1.31826E-04  1.41044E-03  0.00000E+00  2.74178E+01  7.75422E+01  3.86711E-02  4.36766E+00
  1.31826E-04  1.38038E-04  1.41044E-03  0.00000E+00  2.67939E+01  7.75422E+01  3.77911E-02  4.40545E+00
  1.38038E-04  1.44544E-04  1.41044E-03  0.00000E+00  2.61840E+01  7.75422E+01  3.69308E-02  4.44238E+00
  1.44544E-04  1.51356E-04  1.41044E-03  0.00000E+00  2.55883E+01  7.75422E+01  3.60906E-02  4.47847E+00
  1.51356E-04  1.58489E-04  1.41044E-03  0.00000E+00  2.50052E+01  7.75422E+01  3.52683E-02  4.51374E+00
  1.58489E-04  1.65959E-04  1.41044E-03  0.00000E+00  2.44364E+01  7.75422E+01  3.44661E-02  4.54821E+00
  1.65959E-04  1.73780E-04  1.41044E-03  0.00000E+00  2.38801E+01  7.75422E+01  3.36813E-02  4.58189E+00
  1.73780E-04  1.81970E-04  1.41044E-03  0.00000E+00  2.33366E+01  7.75422E+01  3.29148E-02  4.61480E+00
  1.81970E-04  1.90546E-04  1.41044E-03  0.00000E+00  2.28053E+01  7.75422E+01  3.21655E-02  4.64697E+00
  1.90546E-04  1.99526E-04  1.41044E-03  0.00000E+00  2.22859E+01  7.75422E+01  3.14329E-02  4.67840E+00
  1.99526E-04  2.08930E-04  1.41044E-03  0.00000E+00  2.17790E+01  7.75422E+01  3.07179E-02  4.70912E+00
  2.08930E-04  2.18776E-04  1.41044E-03  0.00000E+00  2.12830E+01  7.75422E+01  3.00183E-02  4.73914E+00
  2.18776E-04  2.29087E-04  1.41044E-03  0.00000E+00  2.07988E+01  7.75422E+01  2.93353E-02  4.76847E+00
  2.29087E-04  2.39883E-04  1.41044E-03  0.00000E+00  2.03252E+01  7.75422E+01  2.86674E-02  4.79714E+00
  2.39883E-04  2.51189E-04  1.41044E-03  0.00000E+00  1.98628E+01  7.76520E+01  2.80153E-02  4.82516E+00
  2.51189E-04  2.63027E-04  1.41044E-03  0.00000E+00  1.94103E+01  7.76520E+01  2.73771E-02  4.85253E+00
  2.63027E-04  2.75423E-04  1.41044E-03  0.00000E+00  1.89688E+01  7.76520E+01  2.67542E-02  4.87929E+00
  2.75423E-04  2.88403E-04  1.41044E-03  0.00000E+00  1.85370E+01  7.76520E+01  2.61453E-02  4.90543E+00
  2.88403E-04  3.01995E-04  1.41044E-03  0.00000E+00  1.81149E+01  7.76520E+01  2.55500E-02  4.93098E+00
  3.01995E-04  3.16228E-04  1.41044E-03  0.00000E+00  1.77026E+01  7.76520E+01  2.49684E-02  4.95595E+00
  3.16228E-04  3.31131E-04  1.41044E-03  0.00000E+00  1.72995E+01  7.76520E+01  2.43999E-02  4.98035E+00
  3.31131E-04  3.46737E-04  1.41044E-03  0.00000E+00  1.69060E+01  7.76520E+01  2.38448E-02  5.00420E+00
  3.46737E-04  3.63078E-04  1.41044E-03  0.00000E+00  1.65209E+01  7.76520E+01  2.33016E-02  5.02750E+00
  3.63078E-04  3.80189E-04  1.41044E-03  0.00000E+00  1.61451E+01  7.76520E+01  2.27716E-02  5.05027E+00
  3.80189E-04  3.98107E-04  1.41044E-03  0.00000E+00  1.57773E+01  7.76520E+01  2.22529E-02  5.07252E+00
  3.98107E-04  4.16869E-04  1.41044E-03  0.00000E+00  1.54184E+01  7.76520E+01  2.17467E-02  5.09427E+00
  4.16869E-04  4.36516E-04  1.41044E-03  0.00000E+00  1.50673E+01  7.76520E+01  2.12515E-02  5.11552E+00
  4.36516E-04  4.57088E-04  1.41044E-03  0.00000E+00  1.47244E+01  7.76520E+01  2.07678E-02  5.13629E+00
  4.57088E-04  4.78630E-04  1.41044E-03  0.00000E+00  1.43893E+01  7.76520E+01  2.02951E-02  5.15658E+00
  4.78630E-04  5.01187E-04  1.41044E-03  0.00000E+00  1.40616E+01  7.76520E+01  1.98331E-02  5.17642E+00
  5.01187E-04  5.24807E-04  1.41044E-03  0.00000E+00  1.37417E+01  7.76520E+01  1.93818E-02  5.19580E+00
  5.24807E-04  5.49541E-04  1.41044E-03  0.00000E+00  1.34287E+01  7.76520E+01  1.89404E-02  5.21474E+00
  5.49541E-04  5.75440E-04  1.41044E-03  0.00000E+00  1.31233E+01  7.76520E+01  1.85095E-02  5.23325E+00
  5.75440E-04  6.02560E-04  1.41044E-03  0.00000E+00  1.28243E+01  7.76520E+01  1.80879E-02  5.25134E+00
  6.02560E-04  6.30957E-04  1.41044E-03  0.00000E+00  1.25326E+01  7.76520E+01  1.76765E-02  5.26901E+00
  6.30957E-04  6.60693E-04  1.41044E-03  0.00000E+00  1.22472E+01  7.76520E+01  1.72739E-02  5.28629E+00
  6.60693E-04  6.91831E-04  1.41044E-03  0.00000E+00  1.19686E+01  7.76520E+01  1.68809E-02  5.30317E+00
  6.91831E-04  7.24436E-04  1.41044E-03  0.00000E+00  1.16960E+01  7.76520E+01  1.64965E-02  5.31966E+00
  7.24436E-04  7.58578E-04  1.41044E-03  0.00000E+00  1.14298E+01  7.76520E+01  1.61210E-02  5.33578E+00
  7.58578E-04  7.94328E-04  1.41044E-03  0.00000E+00  1.11697E+01  7.79149E+01  1.57541E-02  5.35154E+00
  7.94328E-04  8.31764E-04  1.41044E-03  0.00000E+00  1.09153E+01  7.79149E+01  1.53954E-02  5.36693E+00
  8.31764E-04  8.70964E-04  1.41044E-03  0.00000E+00  1.06670E+01  7.79149E+01  1.50452E-02  5.38198E+00
  8.70964E-04  9.12011E-04  1.41044E-03  0.00000E+00  1.04241E+01  7.79149E+01  1.47025E-02  5.39668E+00
  9.12011E-04  9.54993E-04  1.41044E-03  0.00000E+00  1.01869E+01  7.79149E+01  1.43680E-02  5.41105E+00
  9.54993E-04  1.00000E-03  1.41044E-03  0.00000E+00  9.95489E+00  7.79149E+01  1.40407E-02  5.42509E+00
  1.00000E-03  1.04713E-03  1.41044E-03  0.00000E+00  9.72850E+00  7.79149E+01  1.37214E-02  5.43881E+00
  1.04713E-03  1.09648E-03  1.41044E-03  0.00000E+00  9.50688E+00  7.79149E+01  1.34089E-02  5.45222E+00
  1.09648E-03  1.14815E-03  1.41044E-03  0.00000E+00  9.29042E+00  7.79149E+01  1.31036E-02  5.46532E+00
  1.14815E-03  1.20226E-03  1.41044E-03  0.00000E+00  9.07888E+00  7.79149E+01  1.28052E-02  5.47813E+00
  1.20226E-03  1.25892E-03  1.41044E-03  0.00000E+00  8.87235E+00  7.79149E+01  1.25139E-02  5.49064E+00
  1.25892E-03  1.31826E-03  1.41044E-03  0.00000E+00  8.67044E+00  7.79149E+01  1.22291E-02  5.50287E+00
  1.31826E-03  1.38038E-03  1.41044E-03  0.00000E+00  8.47292E+00  7.79149E+01  1.19505E-02  5.51482E+00
  1.38038E-03  1.44544E-03  1.41044E-03  0.00000E+00  8.28029E+00  7.79149E+01  1.16788E-02  5.52650E+00
  1.44544E-03  1.51356E-03  1.41044E-03  0.00000E+00  8.09166E+00  7.79149E+01  1.14128E-02  5.53791E+00
  1.51356E-03  1.58489E-03  1.41044E-03  0.00000E+00  7.90754E+00  7.79149E+01  1.11531E-02  5.54907E+00
  1.58489E-03  1.65959E-03  1.41044E-03  0.00000E+00  7.72746E+00  7.79149E+01  1.08991E-02  5.55997E+00
  1.65959E-03  1.73780E-03  1.41044E-03  0.00000E+00  7.55168E+00  7.79149E+01  1.06512E-02  5.57062E+00
  1.73780E-03  1.81970E-03  1.41044E-03  0.00000E+00  7.37972E+00  7.79149E+01  1.04086E-02  5.58103E+00
  1.81970E-03  1.90546E-03  1.41044E-03  0.00000E+00  7.21176E+00  7.79149E+01  1.01717E-02  5.59120E+00
  1.90546E-03  1.99526E-03  1.41044E-03  0.00000E+00  7.04755E+00  7.79149E+01  9.94013E-03  5.60114E+00
  1.99526E-03  2.08930E-03  1.41044E-03  0.00000E+00  6.88714E+00  7.79149E+01  9.71388E-03  5.61085E+00
  2.08930E-03  2.18776E-03  1.41044E-03  0.00000E+00  6.73043E+00  7.79149E+01  9.49286E-03  5.62034E+00
  2.18776E-03  2.29087E-03  1.41044E-03  0.00000E+00  6.57714E+00  7.79149E+01  9.27664E-03  5.62962E+00
  2.29087E-03  2.39883E-03  1.41044E-03  0.00000E+00  6.42757E+00  7.86325E+01  9.06568E-03  5.63869E+00
  2.39883E-03  2.51189E-03  1.41044E-03  0.00000E+00  6.28118E+00  7.86325E+01  8.85921E-03  5.64755E+00
  2.51189E-03  2.63027E-03  1.41044E-03  0.00000E+00  6.13826E+00  7.86325E+01  8.65764E-03  5.65620E+00
  2.63027E-03  2.75423E-03  1.41044E-03  0.00000E+00  5.99848E+00  7.86325E+01  8.46048E-03  5.66466E+00
  2.75423E-03  2.88403E-03  1.41044E-03  0.00000E+00  5.86205E+00  7.86325E+01  8.26805E-03  5.67293E+00
  2.88403E-03  3.01995E-03  1.41044E-03  0.00000E+00  5.72853E+00  7.86325E+01  8.07974E-03  5.68101E+00
  3.01995E-03  3.16228E-03  1.41044E-03  0.00000E+00  5.59814E+00  7.86325E+01  7.89582E-03  5.68891E+00
  3.16228E-03  3.31131E-03  1.41044E-03  0.00000E+00  5.47075E+00  7.86325E+01  7.71615E-03  5.69662E+00
  3.31131E-03  3.46737E-03  1.41044E-03  0.00000E+00  5.34619E+00  7.86325E+01  7.54046E-03  5.70416E+00
  3.46737E-03  3.63078E-03  1.41044E-03  0.00000E+00  5.22454E+00  7.86325E+01  7.36889E-03  5.71153E+00
  3.63078E-03  3.80189E-03  1.41044E-03  0.00000E+00  5.10556E+00  7.86325E+01  7.20107E-03  5.71873E+00
  3.80189E-03  3.98107E-03  1.41044E-03  0.00000E+00  4.98942E+00  7.86325E+01  7.03727E-03  5.72577E+00
  3.98107E-03  4.16869E-03  1.41044E-03  0.00000E+00  4.87578E+00  7.86325E+01  6.87698E-03  5.73265E+00
  4.16869E-03  4.36516E-03  1.41044E-03  0.00000E+00  4.76487E+00  7.86325E+01  6.72055E-03  5.73937E+00
  4.36516E-03  4.57088E-03  1.41044E-03  0.00000E+00  4.65635E+00  7.86325E+01  6.56749E-03  5.74594E+00
  4.57088E-03  4.78630E-03  1.41044E-03  0.00000E+00  4.55042E+00  7.86325E+01  6.41809E-03  5.75235E+00
  4.78630E-03  5.01187E-03  1.41044E-03  0.00000E+00  4.44682E+00  7.86325E+01  6.27196E-03  5.75863E+00
  5.01187E-03  5.24807E-03  1.41044E-03  0.00000E+00  4.34560E+00  7.86325E+01  6.12920E-03  5.76476E+00
  5.24807E-03  5.49541E-03  1.41044E-03  0.00000E+00  4.24672E+00  7.86325E+01  5.98973E-03  5.77075E+00
  5.49541E-03  5.75440E-03  1.41044E-03  0.00000E+00  4.15002E+00  7.86325E+01  5.85335E-03  5.77660E+00
  5.75440E-03  6.02560E-03  1.41044E-03  0.00000E+00  4.05561E+00  7.86325E+01  5.72019E-03  5.78232E+00
  6.02560E-03  6.30957E-03  1.41044E-03  0.00000E+00  3.96324E+00  7.99454E+01  5.58990E-03  5.78791E+00
  6.30957E-03  6.60693E-03  1.41044E-03  0.00000E+00  3.87310E+00  7.99454E+01  5.46277E-03  5.79337E+00
  6.60693E-03  6.91831E-03  1.41044E-03  0.00000E+00  3.78489E+00  7.99454E+01  5.33835E-03  5.79871E+00
  6.91831E-03  7.24436E-03  1.41044E-03  0.00000E+00  3.69879E+00  7.99454E+01  5.21691E-03  5.80393E+00
  7.24436E-03  7.58578E-03  1.41044E-03  0.00000E+00  3.61456E+00  7.99454E+01  5.09810E-03  5.80903E+00
  7.58578E-03  7.94328E-03  1.41044E-03  0.00000E+00  3.53232E+00  7.99454E+01  4.98211E-03  5.81401E+00
  7.94328E-03  8.31764E-03  1.41044E-03  0.00000E+00  3.45192E+00  7.99454E+01  4.86871E-03  5.81888E+00
  8.31764E-03  8.70964E-03  1.41044E-03  0.00000E+00  3.37335E+00  7.99454E+01  4.75790E-03  5.82363E+00
  8.70964E-03  9.12011E-03  1.41044E-03  0.00000E+00  3.29659E+00  7.99454E+01  4.64963E-03  5.82828E+00
  9.12011E-03  9.54993E-03  1.41044E-03  0.00000E+00  3.22152E+00  7.99454E+01  4.54375E-03  5.83283E+00
  9.54993E-03  1.00000E-02  1.41044E-03  0.00000E+00  3.14824E+00  7.99454E+01  4.44040E-03  5.83727E+00
  1.00000E-02  1.04713E-02  1.41044E-03  0.00000E+00  3.07656E+00  7.99454E+01  4.33930E-03  5.84161E+00
  1.04713E-02  1.09648E-02  1.41044E-03  0.00000E+00  3.00657E+00  7.99454E+01  4.24058E-03  5.84585E+00
  1.09648E-02  1.14815E-02  1.41044E-03  0.00000E+00  2.93805E+00  7.99454E+01  4.14394E-03  5.84999E+00
  1.14815E-02  1.20226E-02  1.41044E-03  0.00000E+00  2.87121E+00  8.17497E+01  4.04967E-03  5.85404E+00
  1.20226E-02  1.25892E-02  1.41044E-03  0.00000E+00  2.80588E+00  8.17497E+01  3.95752E-03  5.85800E+00
  1.25892E-02  1.31826E-02  1.41044E-03  0.00000E+00  2.74204E+00  8.17497E+01  3.86747E-03  5.86187E+00
  1.31826E-02  1.38038E-02  1.41044E-03  0.00000E+00  2.67961E+00  8.17497E+01  3.77942E-03  5.86565E+00
  1.38038E-02  1.44544E-02  1.41044E-03  0.00000E+00  2.61865E+00  8.17497E+01  3.69344E-03  5.86934E+00
  1.44544E-02  1.51356E-02  1.41044E-03  0.00000E+00  2.55907E+00  8.17497E+01  3.60941E-03  5.87295E+00
  1.51356E-02  1.58489E-02  1.41044E-03  0.00000E+00  2.50078E+00  8.17497E+01  3.52719E-03  5.87648E+00
  1.58489E-02  1.65959E-02  1.41044E-03  0.00000E+00  2.44391E+00  8.17497E+01  3.44698E-03  5.87992E+00
  1.65959E-02  1.73780E-02  1.41044E-03  0.00000E+00  2.38826E+00  8.17497E+01  3.36849E-03  5.88329E+00
  1.73780E-02  1.81970E-02  1.41044E-03  0.00000E+00  2.33395E+00  8.17497E+01  3.29189E-03  5.88658E+00
  1.81970E-02  1.90546E-02  1.41044E-03  0.00000E+00  2.28079E+00  8.17497E+01  3.21691E-03  5.88980E+00
  1.90546E-02  1.99526E-02  1.41044E-03  0.00000E+00  2.22890E+00  8.17497E+01  3.14372E-03  5.89294E+00
  1.99526E-02  2.08930E-02  1.41044E-03  0.00000E+00  2.17817E+00  8.29817E+01  3.07218E-03  5.89602E+00
  2.08930E-02  2.18776E-02  1.41044E-03  0.00000E+00  2.12861E+00  8.32374E+01  3.00227E-03  5.89902E+00
  2.18776E-02  2.29087E-02  1.41044E-03  0.00000E+00  2.08017E+00  8.34944E+01  2.93395E-03  5.90195E+00
  2.29087E-02  2.39883E-02  1.41044E-03  0.00000E+00  2.03283E+00  8.37518E+01  2.86719E-03  5.90482E+00
  2.39883E-02  2.51189E-02  1.41044E-03  0.00000E+00  1.98660E+00  8.40078E+01  2.80198E-03  5.90762E+00
  2.51189E-02  2.63027E-02  1.41044E-03  0.00000E+00  1.94135E+00  8.41983E+01  2.73816E-03  5.91036E+00
  2.63027E-02  2.75423E-02  1.41044E-03  0.00000E+00  1.89722E+00  8.43237E+01  2.67591E-03  5.91304E+00
  2.75423E-02  2.88403E-02  1.41044E-03  0.00000E+00  1.85404E+00  8.45128E+01  2.61500E-03  5.91565E+00
  2.88403E-02  3.01995E-02  1.41044E-03  0.00000E+00  1.81186E+00  8.47664E+01  2.55552E-03  5.91821E+00
  3.01995E-02  3.16228E-02  1.41044E-03  0.00000E+00  1.77061E+00  8.50196E+01  2.49734E-03  5.92070E+00
  3.16228E-02  3.31131E-02  1.41044E-03  0.00000E+00  1.73035E+00  8.52090E+01  2.44054E-03  5.92314E+00
  3.31131E-02  3.46737E-02  1.41044E-03  0.00000E+00  1.69098E+00  8.53341E+01  2.38502E-03  5.92553E+00
  3.46737E-02  3.63078E-02  1.41044E-03  0.00000E+00  1.65250E+00  8.60058E+01  2.33074E-03  5.92786E+00
  3.63078E-02  3.80189E-02  1.41044E-03  0.00000E+00  1.61492E+00  8.72393E+01  2.27775E-03  5.93014E+00
  3.80189E-02  3.98107E-02  1.41044E-03  0.00000E+00  1.57816E+00  8.72393E+01  2.22590E-03  5.93236E+00
  3.98107E-02  4.16869E-02  1.41044E-03  0.00000E+00  1.54229E+00  8.90331E+01  2.17530E-03  5.93454E+00
  4.16869E-02  4.36516E-02  1.41044E-03  0.00000E+00  1.50718E+00  8.90331E+01  2.12578E-03  5.93666E+00
  4.36516E-02  4.57088E-02  1.41044E-03  0.00000E+00  1.47292E+00  8.90331E+01  2.07746E-03  5.93874E+00
  4.57088E-02  4.78630E-02  1.41044E-03  0.00000E+00  1.43940E+00  8.90331E+01  2.03018E-03  5.94077E+00
  4.78630E-02  5.01187E-02  1.41044E-03  0.00000E+00  1.40667E+00  9.14086E+01  1.98402E-03  5.94276E+00
  5.01187E-02  5.24807E-02  1.41044E-03  0.00000E+00  1.37467E+00  9.14086E+01  1.93888E-03  5.94469E+00
  5.24807E-02  5.49541E-02  1.41044E-03  0.00000E+00  1.34340E+00  9.14086E+01  1.89478E-03  5.94659E+00
  5.49541E-02  5.75440E-02  1.41044E-03  0.00000E+00  1.31285E+00  9.14086E+01  1.85169E-03  5.94844E+00
  5.75440E-02  6.02560E-02  1.41044E-03  0.00000E+00  1.28297E+00  9.37179E+01  1.80955E-03  5.95025E+00
